% energy,cross section
1.00E-05,30922.5357
1.03E-05,30435.8647
1.07E-05,29957.0642
1.10E-05,29485.5904
1.14E-05,29021.7326
1.17E-05,28564.9812
1.21E-05,28115.5999
1.25E-05,27673.1108
1.29E-05,27237.7546
1.33E-05,26809.0821
1.37E-05,26387.3132
1.42E-05,25972.0258
1.46E-05,25563.4204
1.51E-05,25161.0997
1.56E-05,24765.247
1.61E-05,24375.488
1.66E-05,23991.99
1.71E-05,23614.4003
1.77E-05,23242.8716
1.83E-05,22877.0709
1.89E-05,22517.1379
1.95E-05,22162.7581
2.01E-05,21814.0589
2.07E-05,21470.743
2.14E-05,21132.9271
2.21E-05,20800.3296
2.28E-05,20473.0573
2.35E-05,20150.8434
2.43E-05,19833.7855
2.51E-05,19521.6308
2.59E-05,19214.4686
2.67E-05,18912.059
2.76E-05,18614.4836
2.85E-05,18321.5145
2.94E-05,18033.2266
3.03E-05,17749.4033
3.13E-05,17470.1131
3.23E-05,17195.1498
3.34E-05,16924.5763
3.45E-05,16658.1963
3.56E-05,16396.0674
3.67E-05,16138.0026
3.79E-05,15884.0547
3.91E-05,15634.0454
4.04E-05,15388.0231
4.17E-05,15145.8176
4.30E-05,14907.4735
4.44E-05,14672.8281
4.58E-05,14441.9224
4.73E-05,14214.6009
4.88E-05,13990.9014
5.04E-05,13770.6751
5.20E-05,13553.9568
5.37E-05,13340.604
5.54E-05,13130.6489
5.72E-05,12923.955
5.91E-05,12720.5518
6.10E-05,12520.3088
6.29E-05,12323.2531
6.50E-05,12129.2594
6.71E-05,11938.3528
6.92E-05,11750.4133
7.15E-05,11565.4638
7.38E-05,11383.3893
7.61E-05,11204.211
7.86E-05,11027.8183
8.11E-05,10854.2309
8.37E-05,10683.3424
8.64E-05,10515.1713
8.92E-05,10349.6152
9.21E-05,10186.6911
9.51E-05,10026.3008
9.81E-05,9868.45992
1.01E-04,9713.05237
1.05E-04,9560.15752
1.08E-04,9409.59996
1.11E-04,9261.47374
1.15E-04,9115.61452
1.19E-04,8972.10808
1.23E-04,8830.80029
1.26E-04,8691.76941
1.31E-04,8554.87075
1.35E-04,8420.17571
1.39E-04,8287.54831
1.44E-04,8157.05373
1.48E-04,8028.56403
1.53E-04,7902.13875
1.58E-04,7777.65739
1.63E-04,7655.17431
1.68E-04,7534.57596
1.74E-04,7415.91197
1.79E-04,7299.07521
1.85E-04,7184.11102
1.91E-04,7070.91822
1.97E-04,6959.53826
2.04E-04,6849.87548
2.10E-04,6741.96777
2.17E-04,6635.72461
2.24E-04,6531.18067
2.31E-04,6428.25021
2.39E-04,6326.96492
2.46E-04,6227.24355
2.54E-04,6129.11509
2.62E-04,6032.50244
2.71E-04,5937.43215
2.79E-04,5843.83099
2.88E-04,5751.72328
2.98E-04,5661.03941
3.07E-04,5571.80168
3.17E-04,5483.94385
3.28E-04,5397.48637
3.38E-04,5312.36618
3.49E-04,5228.60202
3.60E-04,5146.13382
3.72E-04,5064.97877
3.84E-04,4985.07958
3.96E-04,4906.45205
4.09E-04,4829.04149
4.22E-04,4752.86243
4.36E-04,4677.86263
4.50E-04,4604.05545
4.64E-04,4531.39097
4.79E-04,4459.88148
4.95E-04,4389.47923
5.11E-04,4320.19553
5.27E-04,4251.98472
5.44E-04,4184.85718
5.62E-04,4118.7692
5.80E-04,4053.73035
5.98E-04,3989.69875
6.18E-04,3926.68323
6.38E-04,3864.64363
6.58E-04,3803.58811
6.79E-04,3743.47815
7.01E-04,3684.32129
7.24E-04,3626.08056
7.47E-04,3568.76291
7.71E-04,3512.33288
7.96E-04,3456.79689
8.22E-04,3402.12085
8.48E-04,3348.31074
8.76E-04,3295.33378
9.04E-04,3243.19551
9.33E-04,3191.86443
9.63E-04,3141.34567
9.94E-04,3091.60893
0.00103,3042.65898
0.00106,2994.46666
0.00109,2947.03641
0.00113,2900.34016
0.00116,2854.38204
0.0012,2809.13503
0.00124,2764.60297
0.00128,2720.75984
0.00132,2677.60922
0.00136,2635.12604
0.00141,2593.31364
0.00145,2552.14786
0.0015,2511.63184
0.00155,2471.74227
0.0016,2432.4821
0.00165,2393.82885
0.0017,2355.78528
0.00176,2318.32974
0.00182,2281.46479
0.00187,2245.16956
0.00193,2209.44646
0.002,2174.27534
0.00206,2139.65849
0.00213,2105.57646
0.0022,2072.03143
0.00227,2039.0046
0.00234,2006.49804
0.00242,1974.49363
0.00249,1942.99331
0.00257,1911.9796
0.00266,1881.45434
0.00274,1851.40067
0.00283,1821.82032
0.00292,1792.69701
0.00302,1764.03241
0.00311,1735.81079
0.00321,1708.03372
0.00332,1680.68602
0.00342,1653.76918
0.00353,1627.26851
0.00365,1601.18545
0.00377,1575.50578
0.00389,1550.23087
0.00401,1525.34697
0.00414,1500.85539
0.00428,1476.74284
0.00441,1453.01059
0.00456,1429.64579
0.0047,1406.64968
0.00485,1384.0099
0.00501,1361.72765
0.00517,1339.79099
0.00534,1318.20114
0.00551,1296.94656
0.00569,1276.02842
0.00587,1255.43558
0.00606,1235.16911
0.00626,1215.2182
0.00646,1195.58385
0.00667,1176.25553
0.00688,1157.23413
0.0071,1138.50984
0.00733,1120.08263
0.00757,1101.94301
0.00781,1084.09178
0.00806,1066.51937
0.00832,1049.22657
0.00859,1032.20413
0.00887,1015.45283
0.00915,998.9637
0.00945,982.73744
0.00975,966.76533
0.01007,951.04794
0.01039,935.57675
0.01073,920.35221
0.01107,905.36596
0.01143,890.61836
0.0118,876.10122
0.01218,861.81476
0.01257,847.75095
0.01298,833.90984
0.01339,820.28347
0.01383,806.87167
0.01427,793.66645
0.01473,780.66742
0.01521,767.86667
0.0157,755.26369
0.0162,742.85082
0.01672,730.62763
0.01726,718.58679
0.01782,706.72797
0.01839,695.04411
0.01899,683.53488
0.0196,672.19336
0.02023,661.01917
0.02088,650.00553
0.02155,639.15205
0.02225,628.45216
0.02297,617.90556
0.02371,607.50601
0.02447,597.25338
0.02525,587.21245
0.0253,586.61439
0.02612,576.64958
0.02696,566.82269
0.02783,557.12802
0.02872,547.56544
0.02965,538.12938
0.0306,528.81985
0.03159,519.63179
0.03261,510.56567
0.03366,501.61706
0.03474,492.78678
0.03586,484.07075
0.03694,476.03923
0.03805,468.10579
0.03919,460.26928
0.04037,452.52863
0.04158,444.88282
0.04283,437.33092
0.04412,429.87207
0.04545,422.50546
0.04681,415.23037
0.04822,408.04613
0.04967,400.95215
0.05116,393.94792
0.0527,387.03304
0.05428,380.20726
0.05591,373.47046
0.05759,366.82247
0.05932,360.26292
0.0611,353.79107
0.06294,347.40611
0.06483,341.10758
0.06664,335.33683
0.06849,329.64
0.0704,324.0193
0.07237,318.47317
0.07438,313.00367
0.07645,307.60928
0.07859,302.29206
0.08078,297.05065
0.08303,291.88723
0.08534,286.80065
0.08772,281.7932
0.09016,276.864
0.09268,272.0155
0.09526,267.24712
0.09791,262.56154
0.10043,258.30996
0.10301,254.13053
0.10566,250.02457
0.10837,245.99354
0.11116,242.0391
0.11402,238.16313
0.11695,234.36773
0.11995,230.65528
0.12303,227.02847
0.1262,223.49032
0.12917,220.32752
0.13221,217.24564
0.13532,214.24684
0.1385,211.33596
0.14176,208.51607
0.1451,205.79292
0.1482,203.40498
0.15136,201.10527
0.1546,198.89868
0.1579,196.79064
0.16128,194.78722
0.16472,192.89517
0.16789,191.29351
0.17111,189.79437
0.1744,188.40349
0.17775,187.1286
0.18117,185.97674
0.18426,185.06322
0.1874,184.25991
0.1906,183.57342
0.19385,183.01066
0.19716,182.57874
0.2001,182.3137
0.20308,182.15875
0.20556,182.11695
0.20895,182.18637
0.21207,182.37717
0.21523,182.69261
0.21844,183.13435
0.2217,183.70325
0.225,184.3979
0.22884,185.34181
0.23275,186.43621
0.23722,187.82703
0.24332,189.88322
0.25222,192.95562
0.25652,194.33875
0.26035,195.44336
0.26367,196.27058
0.26647,196.84943
0.2693,197.30586
0.27216,197.6205
0.27447,197.75741
0.27617,197.78665
0.27846,197.72587
0.28083,197.53792
0.28321,197.21572
0.28562,196.75331
0.28804,196.14603
0.29049,195.39068
0.29296,194.48556
0.29545,193.43055
0.29796,192.22712
0.30049,190.87831
0.30304,189.38867
0.30561,187.76422
0.30821,186.01226
0.31148,183.65653
0.31479,181.13245
0.31814,178.46242
0.3222,175.09351
0.3277,170.38398
0.34113,158.66501
0.34695,153.69043
0.35138,149.99931
0.35587,146.36452
0.35965,143.39083
0.36347,140.47365
0.36734,137.62137
0.37124,134.8362
0.37519,132.12386
0.37918,129.48436
0.3832,126.92134
0.38728,124.43321
0.39139,122.02202
0.39555,119.68511
0.39976,117.42339
0.40401,115.23355
0.4083,113.11574
0.41264,111.06629
0.41703,109.08492
0.42146,107.16779
0.42594,105.3143
0.43047,103.52052
0.43504,101.78561
0.43967,100.1058
0.44434,98.48029
0.44906,96.9056
0.45383,95.38101
0.45866,93.90323
0.46353,92.4716
0.46846,91.08303
0.47344,89.73689
0.47847,88.43035
0.48356,87.16289
0.4887,85.93187
0.49494,84.50172
0.50126,83.12033
0.50766,81.78545
0.51414,80.49502
0.5207,79.24708
0.52735,78.03983
0.53408,76.87161
0.5409,75.74086
0.54781,74.64616
0.5548,73.58619
0.56189,72.55974
0.56906,71.56571
0.57633,70.60309
0.58492,69.51873
0.59364,68.47442
0.60249,67.46973
0.61148,66.5029
0.6206,65.5734
0.62985,64.67998
0.63924,63.82297
0.64878,63.00179
0.65845,62.21658
0.66827,61.46647
0.67823,60.75196
0.68835,60.07315
0.69861,59.43131
0.70903,58.82695
0.7196,58.26124
0.72879,57.80763
0.73809,57.3839
0.74752,56.99131
0.75706,56.63152
0.76673,56.30628
0.77652,56.01731
0.78643,55.76665
0.79479,55.58888
0.80324,55.44147
0.81178,55.32635
0.8204,55.24586
0.82913,55.20244
0.8344,55.1954
0.84196,55.21154
0.84911,55.25639
0.85632,55.33208
0.8636,55.44091
0.87093,55.58545
0.87833,55.7686
0.88579,55.99362
0.89143,56.19211
0.8971,56.41777
0.90281,56.67278
0.90856,56.95885
0.91434,57.27866
0.92016,57.63423
0.92601,58.02881
0.9319,58.46485
0.93784,58.94631
0.9438,59.47617
0.94981,60.05922
0.95384,60.4793
0.95788,60.92625
0.96194,61.4016
0.96602,61.90697
0.97011,62.4441
0.97422,63.01486
0.97835,63.62122
0.9825,64.2653
0.98666,64.94935
0.99084,65.67574
0.99504,66.44697
0.99926,67.26568
1.00349,68.13459
1.00739,68.97712
1.01093,69.78185
1.01448,70.62379
1.01803,71.50423
1.0216,72.4311
1.0252,73.40652
1.02879,74.42534
1.03239,75.48863
1.03601,76.60531
1.03966,77.77708
1.04331,78.99672
1.04696,80.26433
1.05063,81.58899
1.05618,83.67919
1.06173,85.87094
1.06733,88.17511
1.07483,91.37483
1.08999,97.95783
1.09568,100.32038
1.09944,101.80073
1.10319,103.18919
1.10695,104.46099
1.11079,105.61106
1.11372,106.37242
1.11665,107.01688
1.11959,107.53159
1.12252,107.90411
1.12527,108.1137
1.12765,108.17917
1.13003,108.13168
1.13242,107.96472
1.13488,107.66651
1.13743,107.21461
1.14,106.61376
1.14257,105.8644
1.14514,104.96676
1.14771,103.92254
1.15027,102.74002
1.1528,101.43112
1.15534,99.99227
1.15788,98.43035
1.15957,97.32457
1.16295,94.97003
1.16603,92.67896
1.1691,90.26477
1.1732,86.88847
1.17731,83.37637
1.18768,74.20902
1.19392,68.7175
1.1981,65.12101
1.20232,61.60853
1.20549,59.06086
1.20865,56.59659
1.21181,54.22197
1.21487,52.01559
1.21788,49.93565
1.22089,47.94527
1.22389,46.04514
1.2269,44.23521
1.22996,42.48425
1.23313,40.76712
1.2363,39.1463
1.23947,37.61969
1.24264,36.18499
1.24581,34.83991
1.24831,33.84177
1.25081,32.89689
1.25331,32.00434
1.25581,31.1633
1.25831,30.37301
1.26086,29.61644
1.26345,28.90404
1.26603,28.24393
1.26861,27.63546
1.2712,27.0779
1.27378,26.57037
1.27637,26.11182
1.27895,25.70086
1.28154,25.3358
1.28412,25.01453
1.2867,24.7345
1.28955,24.47051
1.29239,24.24817
1.29566,24.03697
1.30014,23.81039
1.30648,23.57059
1.31909,23.1497
1.32581,22.86101
1.3315,22.56083
1.33839,22.1341
1.34873,21.41112
1.36251,20.42372
1.37285,19.74154
1.37974,19.32901
1.38663,18.95187
1.39696,18.44912
1.4073,18.01374
1.41764,17.63562
1.42453,17.41068
1.43831,17.01508
1.45353,16.6465
1.46889,16.33078
1.48962,15.97245
1.51063,15.66775
1.53194,15.40301
1.56444,15.06022
1.60889,14.67042
1.66628,14.25305
1.72563,13.89148
1.78719,13.58814
1.8251,13.45271
1.86283,13.3892
1.86523,13.38895
1.88981,13.4282
1.90943,13.54323
1.92245,13.69117
1.9339,13.89901
1.94281,14.13755
1.95044,14.42053
1.95808,14.80582
1.96316,15.13839
1.96825,15.54793
1.97334,16.05046
1.97843,16.66246
1.98352,17.39877
1.98861,18.26934
1.9937,19.27509
1.99879,20.40346
2.00897,22.88829
2.0166,24.71167
2.0208,25.58902
2.02411,26.17655
2.02831,26.75407
2.0319,27.07343
2.03554,27.21652
2.03661,27.22265
2.04043,27.11031
2.04409,26.81142
2.04663,26.50015
2.0507,25.84516
2.05478,25.02903
2.05987,23.84632
2.07259,20.61951
2.07768,19.40114
2.08277,18.29157
2.08786,17.31062
2.09295,16.46322
2.09804,15.74359
2.10313,15.13938
2.10822,14.63523
2.11331,14.21522
2.1184,13.86452
2.12603,13.44055
2.13366,13.1087
2.14435,12.75181
2.1525,12.53877
2.16768,12.23034
2.18286,11.99677
2.20596,11.72544
2.22927,11.51146
2.27656,11.16984
2.39103,10.5042
2.45635,10.10947
2.50404,9.76754
2.53582,9.49272
2.56761,9.16033
2.59145,8.85987
2.61529,8.50541
2.63119,8.23773
2.67092,7.52152
2.68284,7.34538
2.69079,7.26212
2.69913,7.22011
2.70132,7.21887
2.70787,7.24462
2.71403,7.31549
2.7194,7.42005
2.72476,7.56931
2.73052,7.78381
2.73648,8.06828
2.74244,8.41808
2.749,8.87727
2.75496,9.35832
2.76152,9.94919
2.76867,10.65316
2.78377,12.25145
2.79549,13.48908
2.80681,14.59461
2.81436,15.25679
2.82191,15.85041
2.82986,16.40021
2.83781,16.87729
2.84973,17.47522
2.86125,17.94948
2.8839,18.71492
2.9141,19.69567
2.92916,20.26942
2.94422,20.94732
2.95924,21.76206
2.9705,22.48743
2.98218,23.3658
2.99407,24.41786
3.00596,25.66107
3.01388,26.61429
3.02181,27.68126
3.02973,28.875
3.03766,30.20859
3.04558,31.69424
3.05351,33.34166
3.06143,35.15583
3.06936,37.13398
3.08006,40.03714
3.10581,47.50376
3.11374,49.6247
3.12166,51.47128
3.12761,52.60256
3.13252,53.33453
3.13704,53.82264
3.14282,54.16398
3.14572,54.20829
3.15178,54.01848
3.15812,53.40933
3.16327,52.61521
3.16921,51.39005
3.17516,49.87169
3.1811,48.1094
3.18903,45.47713
3.2128,36.91411
3.22073,34.21108
3.22865,31.70969
3.2346,29.98897
3.24054,28.41024
3.24648,26.9753
3.25243,25.6817
3.25837,24.52389
3.26432,23.49424
3.27026,22.58395
3.2762,21.78373
3.28413,20.8719
3.29205,20.11817
3.29998,19.50342
3.3079,19.01087
3.31583,18.62615
3.32375,18.33724
3.33168,18.13427
3.34198,17.98615
3.34832,17.95483
3.36021,18.01026
3.3721,18.20764
3.38398,18.54438
3.39587,19.02413
3.40776,19.65696
3.41838,20.36559
3.42836,21.17183
3.43835,22.13448
3.44555,22.94123
3.45276,23.85609
3.45996,24.89455
3.46717,26.07538
3.47437,27.42121
3.48158,28.95927
3.48878,30.72207
3.49599,32.74788
3.50079,34.26615
3.50559,35.93528
3.5104,37.77055
3.5152,39.78765
3.52,42.00208
3.52481,44.42831
3.52961,47.07861
3.53441,49.96152
3.53922,53.08015
3.54402,56.43001
3.55122,61.85405
3.56083,69.65689
3.57284,79.65647
3.58052,85.6088
3.58629,89.51736
3.59061,91.99945
3.59541,94.19526
3.60022,95.70293
3.60382,96.33254
3.60742,96.50413
3.61127,96.16481
3.61559,95.13154
3.61991,93.41996
3.62351,91.49854
3.62712,89.15811
3.63132,85.9493
3.63672,81.1803
3.64213,75.85172
3.6498,67.69591
3.66157,54.9063
3.66754,48.72266
3.67152,44.81593
3.6755,41.11675
3.67968,37.47914
3.68386,34.10549
3.68699,31.75165
3.69012,29.54847
3.69361,27.27395
3.69639,25.58205
3.69918,23.99956
3.70196,22.52206
3.70475,21.14468
3.70753,19.86229
3.71032,18.6696
3.7131,17.56124
3.71606,16.47255
3.71873,15.55798
3.72216,14.47802
3.72558,13.49294
3.72926,12.5317
3.73204,11.86382
3.73622,10.95025
3.73901,10.39484
3.74263,9.73084
3.74625,9.12649
3.74987,8.57599
3.75349,8.07414
3.75767,7.54948
3.76185,7.07708
3.76602,6.65138
3.7702,6.26747
3.77438,5.92101
3.77856,5.60817
3.78274,5.32553
3.78691,5.07005
3.79109,4.83902
3.79527,4.62999
3.80084,4.38179
3.80641,4.16427
3.81198,3.97347
3.81755,3.80596
3.82312,3.65874
3.82869,3.52923
3.83426,3.4152
3.84262,3.26902
3.85098,3.14791
3.85933,3.04748
3.86769,2.96419
3.87604,2.89516
3.88719,2.82134
3.89833,2.76436
3.90947,2.72083
3.92618,2.67509
3.94011,2.6507
3.95682,2.63365
3.9811,2.62589
4.01614,2.63716
4.05858,2.66987
4.17391,2.79092
4.32258,2.95662
4.38356,3.03313
4.44541,3.12617
4.49245,3.21579
4.52403,3.29064
4.55583,3.38373
4.57979,3.47045
4.60398,3.57841
4.6201,3.66589
4.63623,3.77007
4.64917,3.8695
4.66212,3.98736
4.67507,4.12959
4.68478,4.25739
4.69363,4.39471
4.70206,4.54915
4.71049,4.7338
4.71611,4.87837
4.72173,5.04448
4.72735,5.23698
4.73298,5.4619
4.73815,5.70385
4.74332,5.98654
4.74719,6.23016
4.75107,6.50516
4.75512,6.83012
4.7595,7.23176
4.76389,7.69146
4.7676,8.13064
4.77097,8.57318
4.77434,9.05946
4.77771,9.59145
4.78109,10.17046
4.78558,11.01624
4.79008,11.94445
4.79458,12.94918
4.79907,14.01991
4.80806,16.29177
4.81706,18.575
4.82155,19.64456
4.82605,20.62052
4.83055,21.46865
4.83504,22.15703
4.83853,22.56295
4.84224,22.8598
4.84561,23.00117
4.84781,23.0253
4.85134,22.95029
4.85483,22.74002
4.8582,22.41166
4.86157,21.96717
4.86494,21.41568
4.86831,20.76846
4.87281,19.77924
4.87731,18.67712
4.88405,16.89072
4.89495,13.9334
4.89975,12.69369
4.9049,11.45037
4.90845,10.65646
4.912,9.91927
4.91555,9.24133
4.91856,8.71236
4.92158,8.22656
4.9246,7.78299
4.92761,7.38019
4.93063,7.0163
4.93364,6.68914
4.93666,6.39634
4.93968,6.1354
4.94322,5.86575
4.94677,5.63259
4.95032,5.43195
4.95387,5.2601
4.95742,5.11356
4.96097,4.98919
4.96629,4.83804
4.9709,4.73583
4.97658,4.63982
4.98226,4.57039
4.98793,4.52223
4.99432,4.48837
5.00142,4.47086
5.00497,4.46867
5.01561,4.48332
5.02626,4.52371
5.04045,4.6087
5.05606,4.73557
5.07309,4.9081
5.09013,5.11329
5.10716,5.35026
5.1247,5.62792
5.14274,5.9507
5.16078,6.31327
5.17883,6.71813
5.197,7.17126
5.21529,7.67616
5.23359,8.23201
5.25189,8.84019
5.27296,9.60539
5.28487,10.06844
5.30871,11.0565
5.33,12.00364
5.35838,13.35256
5.38705,14.80483
5.41799,16.37215
5.43219,16.99004
5.44493,17.42231
5.45622,17.67821
5.46806,17.80799
5.47334,17.82275
5.4871,17.76021
5.5152,17.4079
5.54387,17.07883
5.59751,16.60817
5.638,16.15673
5.69278,15.5107
5.72017,15.24207
5.74755,15.04257
5.77083,14.94223
5.79411,14.91756
5.82013,14.99407
5.83964,15.13435
5.85984,15.3655
5.88038,15.7034
5.90092,16.16176
5.91461,16.54454
5.92831,16.99784
5.942,17.53058
5.95569,18.15321
5.96939,18.8778
5.98308,19.71826
5.99678,20.69034
6.01047,21.81151
6.02416,23.10047
6.03443,24.18878
6.0447,25.38978
6.05497,26.71006
6.06524,28.15434
6.0762,29.8336
6.08715,31.65301
6.10359,34.62013
6.12276,38.34586
6.15014,43.7272
6.16384,46.19033
6.17178,47.48034
6.18424,49.23711
6.1967,50.61776
6.20834,51.55236
6.21998,52.1765
6.25079,53.1903
6.26106,53.83185
6.26876,54.65141
6.2739,55.43233
6.27903,56.45292
6.28503,58.01114
6.29016,59.71955
6.2953,61.82562
6.30043,64.37765
6.30557,67.41819
6.31062,70.91642
6.31549,74.79202
6.32037,79.15583
6.32525,83.98947
6.33176,91.09116
6.33843,98.99496
6.35484,119.16691
6.36097,126.06813
6.36598,131.04387
6.37098,135.21977
6.37549,138.14673
6.37999,140.1706
6.38375,141.10384
6.38688,141.33019
6.39086,140.87358
6.39449,139.72526
6.39902,137.32782
6.40315,134.24884
6.40803,129.59623
6.41254,124.43584
6.41704,118.574
6.42205,111.4104
6.42956,99.81845
6.44182,80.30464
6.44815,70.64618
6.45327,63.29701
6.45798,56.98051
6.46152,52.55854
6.46505,48.42128
6.46859,44.57479
6.47162,41.50964
6.47465,38.65588
6.47768,36.00868
6.48071,33.56138
6.48374,31.30578
6.48677,29.23263
6.4898,27.33178
6.49283,25.59262
6.4962,23.83656
6.49957,22.25161
6.50294,20.82299
6.5063,19.5364
6.50967,18.37819
6.51304,17.33556
6.5164,16.39655
6.51977,15.55017
6.52381,14.64271
6.52785,13.83865
6.53189,13.12427
6.53593,12.48762
6.53998,11.91831
6.54402,11.40739
6.5494,10.80386
6.55479,10.27537
6.56018,9.80958
6.56624,9.34819
6.57297,8.90013
6.57971,8.50835
6.58644,8.16339
6.59318,7.85781
6.60328,7.46078
6.61338,7.1243
6.6218,6.88207
6.6319,6.62992
6.642,6.4137
6.6521,6.22845
6.6622,6.07032
6.67736,5.87771
6.69251,5.73249
6.70834,5.62652
6.7245,5.56368
6.74066,5.54597
6.7548,5.56851
6.76894,5.62888
6.78309,5.73078
6.79723,5.87958
6.80666,6.00841
6.81609,6.16419
6.82619,6.36497
6.83629,6.606
6.84639,6.89392
6.85649,7.23708
6.86323,7.50165
6.86996,7.79928
6.8767,8.13454
6.88343,8.51289
6.89016,8.94092
6.8969,9.42656
6.90363,9.9795
6.90868,10.44536
6.91373,10.96156
6.91879,11.53499
6.92384,12.17364
6.92882,12.87674
6.9338,13.66263
6.93879,14.5431
6.94377,15.53155
6.94781,16.42261
6.95239,17.54154
6.95724,18.86768
6.96209,20.357
6.96532,21.44995
6.96855,22.62977
