%energy,cross section
6.49748,0.61316
6.49937,0.63231
6.50104,0.65319
6.50247,0.67453
6.50391,0.69919
6.50535,0.72743
6.50675,0.75863
6.50811,0.79276
6.50947,0.83091
6.51083,0.87337
6.51214,0.91842
6.51338,0.9658
6.51463,1.01766
6.51588,1.07433
6.51734,1.14698
6.51893,1.23492
6.52044,1.32784
6.52195,1.43052
6.52346,1.5438
6.52482,1.65559
6.52603,1.76342
6.52724,1.87978
6.52846,2.00527
6.52959,2.13178
6.53118,2.3244
6.53277,2.53664
6.53435,2.7703
6.53594,3.02737
6.53753,3.30998
6.53874,3.54388
6.53995,3.79507
6.54116,4.06472
6.54237,4.35408
6.54388,4.74552
6.5454,5.17259
6.54691,5.63825
6.54842,6.14568
6.54994,6.69829
6.55145,7.29969
6.55296,7.95376
6.55447,8.6646
6.55584,9.35654
6.5572,10.10137
6.55856,10.90265
6.55992,11.7641
6.56128,12.68964
6.56264,13.68334
6.564,14.74946
6.56537,15.89245
6.56673,17.11695
6.56809,18.42772
6.56953,19.91042
6.57111,21.67477
6.5727,23.57913
6.57429,25.63219
6.57588,27.84288
6.57747,30.22032
6.57906,32.7739
6.58064,35.51299
6.58223,38.44717
6.58382,41.586
6.58541,44.93907
6.587,48.51587
6.58859,52.32574
6.59017,56.37778
6.59229,62.17254
6.59441,68.43342
6.59653,75.17887
6.59864,82.42523
6.60076,90.18665
6.60288,98.47445
6.605,107.29696
6.60712,116.65874
6.60923,126.56057
6.61238,142.25994
6.61547,158.77606
6.61855,176.34646
6.6223,199.01123
6.62684,228.0737
6.63289,268.85765
6.64378,343.71268
6.64862,375.362
6.65347,404.61308
6.65589,418.03137
6.66024,439.68893
6.66351,453.51838
6.66666,464.64621
6.66992,473.75066
6.67389,481.25632
6.67743,484.54242
6.67985,484.92541
6.68293,483.22579
6.68638,478.49003
6.69001,470.41451
6.69364,459.38778
6.69727,445.68998
6.7009,429.64919
6.70574,405.24812
6.71058,378.24663
6.71785,334.89888
6.72692,279.87901
6.73312,244.00458
6.73706,222.5902
6.74099,202.45215
6.74492,183.72368
6.7484,168.39529
6.75143,156.03146
6.75445,144.56463
6.75748,133.98058
6.7605,124.25435
6.76353,115.35232
6.76656,107.23417
6.76958,99.85467
6.77261,93.16535
6.77563,87.11596
6.77866,81.65576
6.78168,76.73457
6.78471,72.30355
6.78773,68.31598
6.79076,64.72768
6.79378,61.49735
6.79711,58.31196
6.80074,55.224
6.80437,52.4876
6.808,50.05522
6.81163,47.88528
6.81526,45.94174
6.82071,43.38423
6.82434,41.88038
6.82979,39.87388
6.83523,38.11619
6.84068,36.56213
6.84612,35.17639
6.85429,33.35447
6.86246,31.7801
6.87169,30.23691
6.87925,29.12286
6.8906,27.65747
6.90194,26.3922
6.91329,25.28783
6.92463,24.31505
6.93598,23.45143
6.95111,22.44
6.96623,21.55993
6.98136,20.78712
7.00405,19.78973
7.02674,18.94654
7.04943,18.22435
7.0743,17.54325
7.09916,16.95454
7.13645,16.20731
7.1741,15.58109
7.21192,15.05104
7.24974,14.59854
7.30088,14.08235
7.35202,13.65113
7.41728,13.19393
7.48516,12.80183
7.57629,12.37345
7.68384,11.97173
7.80579,11.61131
7.93404,11.30856
8.10273,10.99274
8.2746,10.7376
8.50973,10.4619
8.81327,10.18789
9.19158,9.92644
9.72136,9.64715
10.46454,9.3461
11.685,8.95011
13.76721,8.31538
14.76615,7.96289
15.50786,7.65452
16.06102,7.38505
16.5174,7.12718
16.98675,6.81702
17.34707,6.53711
17.59181,6.32042
17.83999,6.07335
18.09168,5.78852
18.28312,5.54345
18.42965,5.33592
18.62487,5.02758
18.79362,4.72621
18.90613,4.50412
19.01582,4.2688
19.1227,4.01941
19.23239,3.7402
19.33477,3.45568
19.4259,3.18085
19.51882,2.87764
19.59353,2.61579
19.67116,2.32581
19.7471,2.02436
19.8146,1.74227
19.88491,1.4363
20.02092,0.8294
20.05852,0.6666
20.08397,0.56069
20.10287,0.48524
20.11799,0.42744
20.13312,0.3724
20.14543,0.32998
20.15774,0.29007
20.16595,0.26502
20.17518,0.23851
20.18133,0.2219
20.18749,0.2062
20.19313,0.19268
20.19826,0.18114
20.20339,0.17036
20.20852,0.16038
20.21468,0.14954
20.22006,0.14111
20.22545,0.13374
20.23006,0.1283
20.23468,0.12373
20.23904,0.12023
20.24289,0.11784
20.24674,0.11613
20.24981,0.11527
20.25385,0.11485
20.25674,0.11506
20.25982,0.11577
20.26392,0.11753
20.26777,0.12006
20.27161,0.12346
20.27508,0.1273
20.27828,0.13154
20.28162,0.13667
20.28546,0.14355
20.28893,0.15063
20.29265,0.15923
20.29675,0.16996
20.29983,0.17889
20.30316,0.18945
20.30675,0.20189
20.31086,0.21753
20.31432,0.23193
20.31778,0.2475
20.32163,0.26621
20.32547,0.28647
20.32958,0.30986
20.33419,0.33847
20.33881,0.36963
20.34394,0.40741
20.34753,0.43593
20.35112,0.46623
20.35471,0.4984
20.35882,0.53753
20.36292,0.57931
20.36702,0.62386
20.37113,0.67131
20.37626,0.73492
20.38139,0.80357
20.38652,0.87756
20.39165,0.95723
20.39677,1.04292
20.4019,1.13502
20.40703,1.23392
20.41216,1.34007
20.41678,1.44219
20.4214,1.55092
20.42755,1.70686
20.43371,1.87625
20.43858,2.02063
20.44397,2.19153
20.44935,2.37517
20.45474,2.57251
20.46012,2.78457
20.46551,3.01248
20.4709,3.25749
20.47628,3.52096
20.48167,3.80438
20.48705,4.1094
20.49244,4.43787
20.49834,4.82692
20.5045,5.26872
20.51065,5.75089
20.51681,6.27786
20.52296,6.85468
20.52912,7.48721
20.53527,8.18225
20.54143,8.94779
20.54553,9.50189
20.54964,10.09467
20.55374,10.72973
20.55784,11.41115
20.56195,12.14352
20.56605,12.93207
20.57015,13.78269
20.57426,14.70211
20.57836,15.69804
20.58246,16.77924
20.58657,17.95571
20.59067,19.23893
20.59478,20.64204
20.59888,22.18006
20.60298,23.87015
20.60709,25.73197
20.61119,27.78799
20.61427,29.47276
20.61734,31.29314
20.62042,33.26267
20.6235,35.39582
20.62658,37.70889
20.62966,40.21953
20.63273,42.94725
20.63581,45.91315
20.63889,49.14054
20.64197,52.65453
20.64504,56.48309
20.64812,60.65566
20.6512,65.20486
20.65428,70.16552
20.65736,75.57566
20.66023,81.06631
20.663,86.79828
20.66577,92.99335
20.66854,99.68806
20.67131,106.91944
20.67408,114.72791
20.67685,123.15522
20.67962,132.24582
20.68239,142.04534
20.68516,152.60231
20.68793,163.96601
20.69121,178.55209
20.69449,194.43423
20.69778,211.70561
20.70106,230.46044
20.70434,250.79713
20.70762,272.81284
20.71091,296.60782
20.71419,322.28016
20.71706,346.36282
20.71994,372.02257
20.72281,399.3237
20.72568,428.32548
20.72855,459.08802
20.73286,508.64772
20.73717,562.45011
20.74148,620.63795
20.74579,683.31127
20.7501,750.53956
20.75441,822.34398
20.75872,898.70058
20.76241,967.71121
20.76692,1056.39189
20.77369,1197.85407
20.78026,1343.75622
20.78847,1536.05877
20.80324,1898.70527
20.81596,2210.08412
20.82581,2436.66679
20.83238,2575.09731
20.83894,2699.95844
20.84551,2808.4792
20.85207,2898.18701
20.85864,2967.00497
20.86422,3007.86795
20.87079,3034.2363
20.87538,3038.4408
20.88113,3027.15544
20.88687,2997.7819
20.89344,2942.89662
20.9,2866.69416
20.90657,2771.12437
20.91313,2658.54044
20.9197,2531.60286
20.92955,2320.57858
20.94104,2055.01851
20.95926,1626.34529
20.96862,1416.67396
20.97518,1277.61349
20.98175,1146.67592
20.98667,1054.3537
20.99201,960.3569
20.99611,892.43143
21.00021,828.35974
21.00432,768.13985
21.00842,711.73419
21.01252,659.07489
21.01663,610.06779
21.02073,564.59565
21.02484,522.52207
21.02894,483.69676
21.03304,447.95889
21.03715,415.13921
21.04125,385.06354
21.04535,357.55609
21.04946,332.44167
21.05356,309.54729
21.05756,289.2013
21.06146,271.10812
21.06536,254.58834
21.06926,239.51378
21.07316,225.76284
21.07705,213.22108
21.08095,201.78139
21.08485,191.3438
21.08875,181.81543
21.09265,173.11066
21.09655,165.15088
21.10239,154.45208
21.10824,145.05099
21.11409,136.76017
21.12055,128.6941
21.12568,122.99371
21.13081,117.82767
21.13851,110.93443
21.1462,104.90132
21.15389,99.57622
21.16159,94.83767
21.16928,90.58919
21.17954,85.55602
21.1898,81.11713
21.20006,77.16598
21.21032,73.6211
21.22058,70.4195
21.23597,66.15456
21.25136,62.4232
21.26674,59.12958
21.28213,56.20055
21.2965,53.74495
21.31804,50.48343
21.33958,47.64221
21.36113,45.14583
21.38267,42.93594
21.40729,40.70264
21.42781,39.0425
21.45859,36.83794
21.48937,34.91846
21.52014,33.23319
21.55092,31.7425
21.5817,30.41516
21.62273,28.85696
21.66377,27.49876
21.70481,26.30496
21.74995,25.1488
21.79919,24.04273
21.84843,23.07053
21.89768,22.20933
21.96096,21.2369
22.03828,20.21523
22.1156,19.34018
22.19292,18.58243
22.27079,17.91545
22.3492,17.3238
22.46682,16.55773
22.58227,15.9186
22.69337,15.38678
22.84151,14.77796
23.00181,14.22004
23.16774,13.72809
23.39274,13.16665
23.61774,12.69696
23.89899,12.20489
24.24009,11.71095
24.59087,11.28685
25.01274,10.85573
25.48571,10.4435
26.1171,9.96987
27.0522,9.36041
29.08514,8.13244
29.9116,7.5899
30.54608,7.12764
30.97703,6.78126
31.41406,6.39515
31.74646,6.07327
32.08198,5.71737
32.42065,5.3212
32.64855,5.03027
32.87805,4.7146
33.10916,4.37079
33.3419,3.99537
33.51768,3.69066
33.69345,3.36567
33.87171,3.01436
34.04997,2.6405
34.21774,2.26824
34.36455,1.92754
34.53583,1.51628
34.7558,0.98126
34.84482,0.7704
34.90591,0.63091
34.95129,0.5314
34.9862,0.45798
35.01413,0.40159
35.04381,0.34436
35.06562,0.30429
35.08744,0.26612
35.10839,0.23148
35.12584,0.20424
35.13981,0.18361
35.15377,0.16409
35.16512,0.14909
35.17821,0.1328
35.18694,0.12258
35.19566,0.11289
35.20614,0.102
35.21312,0.09521
35.2201,0.08879
35.22883,0.08134
35.23668,0.07518
35.24454,0.06956
35.25108,0.0653
35.25763,0.06145
35.26374,0.05822
35.26897,0.05574
35.27421,0.05355
35.27858,0.05193
35.28381,0.05026
35.28861,0.04899
35.29298,0.04805
35.29865,0.04716
35.30367,0.04667
35.30825,0.04649
35.31349,0.04659
35.31872,0.04703
35.32309,0.04766
35.32756,0.04855
35.33312,0.05004
35.33792,0.05165
35.34316,0.05377
35.3484,0.05628
35.35298,0.0588
35.35887,0.06249
35.36323,0.06555
35.3676,0.06892
35.37196,0.07257
35.3772,0.07737
35.38243,0.08261
35.38832,0.08905
35.39421,0.0961
35.40032,0.10405
35.40687,0.11331
35.41342,0.12338
35.42083,0.13579
35.42869,0.15012
35.43654,0.16572
35.44265,0.17876
35.44876,0.19263
35.45487,0.20733
35.46098,0.2229
35.46796,0.24178
35.47494,0.26187
35.48193,0.28319
35.48891,0.30579
35.49764,0.33591
35.50636,0.36818
35.51509,0.40269
35.52382,0.43953
35.53429,0.48695
35.54476,0.53804
35.55524,0.593
35.56571,0.65201
35.57487,0.70713
35.58404,0.76567
35.5932,0.82777
35.60542,0.91639
35.61764,1.01205
35.62986,1.11517
35.63902,1.19768
35.65124,1.31499
35.66346,1.44112
35.67393,1.55668
35.6844,1.67949
35.69837,1.85524
35.71233,2.04563
35.72368,2.21186
35.73677,2.41742
35.74986,2.63874
35.76295,2.87694
35.77604,3.13329
35.78913,3.40913
35.80223,3.70594
35.81532,4.02532
35.82841,4.36903
35.8415,4.73896
35.85459,5.13722
35.86768,5.56609
35.88077,6.02809
35.89386,6.52596
35.90696,7.06275
35.92005,7.64179
35.93314,8.26679
35.94623,8.94182
35.95932,9.67142
35.97241,10.46061
35.9855,11.31499
35.99859,12.24081
36.01169,13.24507
36.02478,14.33561
36.03787,15.52126
36.05096,16.81196
36.06405,18.21901
36.07714,19.75522
36.09023,21.43518
36.10332,23.27559
36.11642,25.29571
36.12951,27.51768
36.1426,29.96729
36.15569,32.67461
36.16442,34.6399
36.17314,36.74732
36.18187,39.01046
36.1906,41.44451
36.19933,44.0668
36.20805,46.89696
36.21591,49.64048
36.22376,52.58935
36.23162,55.76504
36.23947,59.192
36.24733,62.89863
36.25518,66.91756
36.26304,71.28697
36.27089,76.05137
36.2784,81.02137
36.2859,86.45352
36.29341,92.41108
36.30091,98.96834
36.30842,106.21338
36.31593,114.2499
36.32156,120.87008
36.32718,128.06409
36.33268,135.71018
36.33792,143.6272
36.34316,152.23473
36.34839,161.61072
36.35363,171.84289
36.35887,183.02861
36.3641,195.27779
36.36934,208.71082
36.37457,223.46276
36.37981,239.68225
36.38505,257.53413
36.38959,274.46527
36.39378,291.41341
36.39796,309.73868
36.40215,329.5588
36.40634,350.99632
36.41053,374.18441
36.41472,399.2629
36.41891,426.38101
36.4231,455.69445
36.42729,487.36873
36.43148,521.57484
36.43567,558.49647
36.43986,598.317
36.44405,641.23162
36.44823,687.43838
36.45242,737.14307
36.45661,790.55236
36.4608,847.8781
36.46499,909.32925
36.46918,975.12253
36.47337,1045.46249
36.47861,1140.09918
36.48349,1235.47383
36.48838,1337.95876
36.49327,1447.83262
36.49816,1565.34836
36.50304,1690.72577
36.50793,1824.14513
36.51282,1965.74306
36.5191,2159.94948
36.52486,2350.01182
36.53062,2551.48656
36.5383,2837.46019
36.54598,3142.32568
36.55415,3485.67168
36.56504,3969.7762
36.58005,4672.4607
36.6024,5738.70113
36.61357,6250.44755
36.62474,6727.21014
36.63312,7052.32729
36.6415,7342.5281
36.64988,7591.95878
36.65825,7795.45882
36.66621,7942.34733
36.67445,8043.70476
36.68339,8093.07202
36.6859,8095.4255
36.694,8068.56296
36.70182,7993.40057
36.7102,7861.07
36.71858,7678.21765
36.72696,7448.99192
36.73533,7178.4309
36.74371,6872.25693
36.75209,6536.70279
36.76326,6054.84591
36.78561,5030.65297
36.80376,4202.90455
36.81437,3742.57125
36.82401,3347.49474
36.83364,2978.27029
36.84202,2680.30209
36.84761,2494.17252
36.85319,2318.24604
36.85878,2152.5611
36.86436,1997.0584
36.86995,1851.5918
36.87553,1715.93774
36.88182,1574.69312
36.88705,1465.84223
36.89229,1364.70339
36.89753,1270.92457
36.90276,1184.14797
36.908,1103.99385
36.91324,1030.08098
36.91847,962.02349
36.92371,899.44176
36.92895,841.95928
36.93418,789.21253
36.93942,740.84414
36.94466,696.51937
36.94989,655.91354
36.95513,618.72156
36.96036,584.6542
36.9656,553.44226
36.96909,534.09551
36.97607,498.59526
36.98306,466.92591
36.99004,438.62339
36.99571,417.81871
37.00138,398.7644
37.00989,373.07719
37.0184,350.39915
37.02691,330.28069
37.03542,312.34315
37.04393,296.26717
37.05244,281.78649
37.05811,272.907
37.06946,256.75311
37.0808,242.43057
37.09324,228.47746
37.10568,216.04903
37.11811,204.89964
37.13055,194.83531
37.14713,182.84007
37.16372,172.21162
37.1803,162.72721
37.19688,154.21167
37.21346,146.52513
37.23092,139.20491
37.24837,132.56908
37.26583,126.5282
37.29201,118.42306
37.31819,111.28864
37.34437,104.96571
37.37056,99.32779
37.39674,94.27307
37.42292,89.71874
37.4491,85.59664
37.47529,81.85029
37.50845,77.57109
37.53987,73.93146
37.57129,70.63853
37.61842,66.25122
37.66555,62.41896
37.71268,59.04621
37.76155,55.95377
37.81391,53.02396
37.86628,50.42739
37.91864,48.112
37.95355,46.70356
38.02337,44.16469
38.09319,41.94094
38.16301,39.97859
38.23283,38.23527
38.30265,36.67715
38.38644,35.01388
38.47022,33.54085
38.55401,32.22788
38.67186,30.60495
38.77407,29.37326
38.91035,27.93885
39.04662,26.69872
39.1829,25.61637
39.31194,24.71148
39.5055,23.53247
39.69905,22.52597
39.90909,21.58829
40.11912,20.77977
40.40113,19.85318
40.68512,19.06566
40.97112,18.38646
41.25912,17.79496
41.69518,17.03679
42.16194,16.36561
42.61195,15.82232
43.22397,15.20509
43.87199,14.66524
44.63738,14.13695
45.58247,13.60139
46.70902,13.07982
48.04778,12.5704
49.78083,12.02287
52.20222,11.37117
55.99,10.39834
57.6422,9.90902
58.81222,9.49748
59.7422,9.10549
60.37212,8.79135
61.01093,8.41561
61.4271,8.12922
61.83358,7.80778
62.19439,7.47902
62.46452,7.19861
62.68962,6.93775
62.91473,6.64746
63.11732,6.35643
63.35368,5.97459
63.55673,5.60279
63.69134,5.32885
63.80389,5.08144
63.95021,4.73171
64.06276,4.4383
64.17531,4.12118
64.28569,3.78487
64.39606,3.42132
64.49819,3.05913
64.5799,2.75099
64.66161,2.42669
64.74623,2.07505
64.85129,1.62134
64.96072,1.1435
65.00449,0.95791
65.03513,0.83272
65.06139,0.73001
65.08328,0.64867
65.10225,0.58209
65.11975,0.5245
65.13143,0.48851
65.1431,0.4547
65.15623,0.41955
65.16499,0.398
65.17374,0.3781
65.18176,0.36141
65.18906,0.34764
65.19636,0.33527
65.20365,0.32442
65.21022,0.31602
65.21897,0.30698
65.22481,0.30242
65.23064,0.29909
65.23794,0.29676
65.24159,0.29641
65.24815,0.29719
65.25399,0.2995
65.25946,0.30311
65.26457,0.30782
65.2715,0.31637
65.2777,0.32625
65.28317,0.33682
65.28828,0.34833
65.29502,0.36611
65.30086,0.38397
65.30469,0.39701
65.31089,0.42046
65.316,0.44203
65.32111,0.46576
65.32694,0.49564
65.33241,0.52649
65.33861,0.56495
65.34554,0.61261
65.35065,0.65108
65.35612,0.69563
65.36196,0.74719
65.36852,0.81046
65.374,0.86773
65.37947,0.92937
65.38603,1.00951
65.3926,1.09682
65.39953,1.19736
65.40464,1.27735
65.40974,1.36268
65.41485,1.45368
65.42032,1.55788
65.42616,1.67717
65.43199,1.80549
65.43783,1.94353
65.4444,2.11137
65.44987,2.26223
65.45534,2.42389
65.46081,2.5972
65.46628,2.78309
65.47175,2.9826
65.47722,3.19687
65.4827,3.42718
65.48817,3.67493
65.49364,3.94168
65.49911,4.22918
65.50568,4.60433
65.51224,5.01595
65.51881,5.46835
65.52537,5.96644
65.53194,6.51586
65.53632,6.91377
65.54069,7.33944
65.54507,7.79517
65.54945,8.28347
65.55383,8.8071
65.5582,9.36905
65.56258,9.97259
65.56696,10.62127
65.5717,11.37947
65.57681,12.2665
65.58191,13.23388
65.58702,14.2897
65.59213,15.44289
65.59723,16.70324
65.60234,18.08148
65.60745,19.58936
65.61255,21.23974
65.61766,23.04661
65.62277,25.02523
65.62787,27.19215
65.63298,29.56538
65.63809,32.1644
65.64319,35.01021
65.6483,38.1255
65.65341,41.53468
65.65851,45.26392
65.66362,49.3412
65.66873,53.7964
65.67383,58.66139
65.67894,63.96997
65.68405,69.75789
65.68915,76.06291
65.69419,82.82272
65.69915,90.05285
65.70411,97.88713
65.70907,106.36706
65.71403,115.53574
65.71899,125.43764
65.72395,136.11843
65.72891,147.62496
65.73373,159.62814
65.7384,172.09558
65.74307,185.41937
65.74774,199.64051
65.7524,214.80011
65.75707,230.93889
65.76174,248.09687
65.76641,266.31341
65.77108,285.62698
65.77808,316.73395
65.78509,350.50803
65.79209,387.05323
65.79909,426.46036
65.8061,468.80114
65.81223,508.30002
65.8204,564.55567
65.82857,624.91892
65.83674,689.3414
65.84578,765.27024
65.85629,859.20394
65.86679,958.79499
65.87963,1087.10325
65.89831,1283.10332
65.92948,1616.50319
65.9443,1767.86719
65.95831,1900.58926
65.97231,2019.11302
65.98165,2088.32603
65.99099,2148.48166
66.00033,2198.67227
66.00967,2238.13562
66.02087,2270.5045
66.03091,2285.09431
66.03535,2287.13253
66.04702,2279.57294
66.05636,2260.22006
66.06569,2229.42591
66.07503,2187.74057
66.08437,2135.88048
66.09371,2074.70843
66.10772,1967.67324
66.12172,1845.63234
66.13573,1712.56658
66.16094,1458.10286
66.18429,1221.41094
66.19829,1085.21793
66.20997,977.26816
66.22164,875.49921
66.23039,803.69954
66.23915,736.03795
66.2479,672.65513
66.25666,613.61993
66.26541,558.93317
66.27417,508.53863
66.28292,462.32825
66.28876,433.77409
66.29722,395.44812
66.30554,361.17397
66.31108,340.09928
66.31662,320.3758
66.32217,301.94305
66.32771,284.73966
66.33326,268.7037
66.3388,253.77312
66.34435,239.88657
66.34989,226.98372
66.35544,215.00532
66.36098,203.89357
66.3693,188.72929
66.37761,175.20937
66.38403,165.79039
66.39133,156.0615
66.39862,147.27344
66.40592,139.3333
66.41321,132.15544
66.42051,125.66134
66.42781,119.7794
66.4351,114.44454
66.4424,109.5979
66.45334,103.12894
66.46428,97.48411
66.47522,92.53152
66.48617,88.16047
66.49711,84.27877
66.5117,79.73377
66.52629,75.77805
66.54088,72.2986
66.55547,69.20805
66.57006,66.43864
66.59195,62.77452
66.61384,59.58402
66.6401,56.24941
66.66636,53.34574
66.69263,50.79005
66.71889,48.52101
66.74515,46.49174
66.78309,43.9112
66.81227,42.1612
66.85604,39.84959
66.89981,37.84705
66.94358,36.09572
66.98736,34.5514
67.03219,33.14828
67.07703,31.89717
67.14428,30.25596
67.19482,29.17674
67.25107,28.10436
67.32195,26.91433
67.4097,25.6439
67.50803,24.43254
67.6122,23.34148
67.71008,22.45945
67.82483,21.5661
67.94295,20.7739
68.05545,20.11635
68.22421,19.27113
68.39296,18.55931
68.56171,17.95133
68.78671,17.26601
69.04015,16.62523
69.29358,16.08918
69.62838,15.50115
69.96319,15.01585
70.32845,14.57233
70.69372,14.19695
71.25225,13.71987
71.9273,13.25524
72.71486,12.8174
73.68243,12.37986
